3.400000000000000244e-02
3.400000000000000244e-02
3.600000000000000422e-02
3.600000000000000422e-02
3.600000000000000422e-02
3.400000000000000244e-02
3.400000000000000244e-02
3.400000000000000244e-02
3.400000000000000244e-02
3.400000000000000244e-02
3.400000000000000244e-02
3.600000000000000422e-02
3.600000000000000422e-02
3.600000000000000422e-02
3.799999999999999906e-02
3.799999999999999906e-02
4.000000000000000083e-02
4.200000000000000261e-02
4.200000000000000261e-02
4.399999999999999745e-02
4.399999999999999745e-02
4.200000000000000261e-02
4.200000000000000261e-02
4.200000000000000261e-02
4.399999999999999745e-02
4.399999999999999745e-02
4.599999999999999922e-02
4.599999999999999922e-02
4.800000000000000100e-02
4.800000000000000100e-02
4.800000000000000100e-02
4.800000000000000100e-02
4.800000000000000100e-02
4.599999999999999922e-02
4.599999999999999922e-02
4.800000000000000100e-02
4.800000000000000100e-02
5.000000000000000278e-02
5.000000000000000278e-02
5.000000000000000278e-02
5.000000000000000278e-02
5.200000000000000455e-02
5.200000000000000455e-02
5.200000000000000455e-02
5.200000000000000455e-02
5.000000000000000278e-02
4.800000000000000100e-02
4.800000000000000100e-02
4.800000000000000100e-02
5.000000000000000278e-02
5.000000000000000278e-02
4.800000000000000100e-02
4.800000000000000100e-02
4.800000000000000100e-02
4.800000000000000100e-02
4.599999999999999922e-02
4.599999999999999922e-02
4.399999999999999745e-02
4.399999999999999745e-02
4.399999999999999745e-02
4.200000000000000261e-02
4.200000000000000261e-02
4.200000000000000261e-02
4.000000000000000083e-02
4.000000000000000083e-02
4.000000000000000083e-02
4.000000000000000083e-02
4.000000000000000083e-02
4.000000000000000083e-02
3.799999999999999906e-02
3.799999999999999906e-02
3.799999999999999906e-02
3.600000000000000422e-02
3.600000000000000422e-02
3.600000000000000422e-02
3.600000000000000422e-02
3.600000000000000422e-02
3.600000000000000422e-02
3.600000000000000422e-02
3.600000000000000422e-02
3.600000000000000422e-02
3.799999999999999906e-02
3.799999999999999906e-02
4.000000000000000083e-02
4.000000000000000083e-02
4.200000000000000261e-02
4.599999999999999922e-02
4.800000000000000100e-02
5.200000000000000455e-02
5.600000000000000117e-02
5.999999999999999778e-02
6.400000000000000133e-02
6.800000000000000488e-02
7.599999999999999811e-02
8.200000000000000344e-02
8.600000000000000699e-02
8.799999999999999489e-02
9.199999999999999845e-02
9.600000000000000200e-02
1.000000000000000056e-01
1.020000000000000073e-01
1.059999999999999970e-01
1.079999999999999988e-01
1.120000000000000023e-01
1.160000000000000059e-01
1.180000000000000077e-01
1.219999999999999973e-01
1.239999999999999991e-01
1.260000000000000009e-01
1.260000000000000009e-01
1.219999999999999973e-01
1.199999999999999956e-01
1.160000000000000059e-01
1.140000000000000041e-01
1.120000000000000023e-01
1.100000000000000006e-01
1.120000000000000023e-01
1.120000000000000023e-01
1.120000000000000023e-01
1.140000000000000041e-01
1.160000000000000059e-01
1.160000000000000059e-01
1.140000000000000041e-01
1.120000000000000023e-01
1.079999999999999988e-01
1.059999999999999970e-01
1.059999999999999970e-01
1.079999999999999988e-01
1.079999999999999988e-01
1.100000000000000006e-01
1.100000000000000006e-01
1.079999999999999988e-01
1.079999999999999988e-01
1.079999999999999988e-01
1.079999999999999988e-01
1.079999999999999988e-01
1.079999999999999988e-01
1.079999999999999988e-01
1.079999999999999988e-01
1.079999999999999988e-01
1.079999999999999988e-01
1.120000000000000023e-01
1.120000000000000023e-01
1.140000000000000041e-01
1.140000000000000041e-01
1.140000000000000041e-01
1.160000000000000059e-01
1.160000000000000059e-01
1.180000000000000077e-01
1.199999999999999956e-01
1.219999999999999973e-01
1.219999999999999973e-01
1.239999999999999991e-01
1.260000000000000009e-01
1.300000000000000044e-01
1.320000000000000062e-01
1.320000000000000062e-01
1.340000000000000080e-01
1.340000000000000080e-01
1.340000000000000080e-01
1.340000000000000080e-01
1.340000000000000080e-01
1.340000000000000080e-01
1.320000000000000062e-01
1.320000000000000062e-01
1.300000000000000044e-01
1.300000000000000044e-01
1.320000000000000062e-01
1.320000000000000062e-01
1.300000000000000044e-01
1.300000000000000044e-01
1.300000000000000044e-01
1.280000000000000027e-01
1.260000000000000009e-01
1.260000000000000009e-01
1.260000000000000009e-01
1.260000000000000009e-01
1.260000000000000009e-01
1.260000000000000009e-01
1.239999999999999991e-01
1.199999999999999956e-01
1.199999999999999956e-01
1.199999999999999956e-01
1.199999999999999956e-01
1.180000000000000077e-01
1.180000000000000077e-01
1.199999999999999956e-01
1.199999999999999956e-01
1.199999999999999956e-01
1.180000000000000077e-01
1.180000000000000077e-01
1.180000000000000077e-01
1.199999999999999956e-01
1.180000000000000077e-01
1.199999999999999956e-01
1.199999999999999956e-01
1.199999999999999956e-01
1.180000000000000077e-01
1.180000000000000077e-01
1.199999999999999956e-01
1.219999999999999973e-01
1.239999999999999991e-01
1.239999999999999991e-01
1.260000000000000009e-01
1.280000000000000027e-01
1.300000000000000044e-01
1.360000000000000098e-01
1.420000000000000151e-01
1.499999999999999944e-01
1.580000000000000016e-01
1.620000000000000051e-01
1.660000000000000087e-01
1.680000000000000104e-01
1.740000000000000158e-01
1.839999999999999969e-01
1.960000000000000075e-01
2.080000000000000182e-01
2.179999999999999993e-01
2.320000000000000118e-01
2.419999999999999929e-01
2.520000000000000018e-01
2.620000000000000107e-01
2.660000000000000142e-01
2.720000000000000195e-01
2.760000000000000231e-01
2.800000000000000266e-01
2.800000000000000266e-01
2.820000000000000284e-01
2.820000000000000284e-01
2.840000000000000302e-01
2.840000000000000302e-01
2.840000000000000302e-01
2.860000000000000320e-01
2.860000000000000320e-01
2.880000000000000338e-01
2.899999999999999800e-01
2.880000000000000338e-01
2.880000000000000338e-01
2.860000000000000320e-01
2.860000000000000320e-01
2.860000000000000320e-01
2.860000000000000320e-01
2.840000000000000302e-01
2.820000000000000284e-01
2.820000000000000284e-01
2.840000000000000302e-01
2.840000000000000302e-01
2.840000000000000302e-01
2.820000000000000284e-01
2.820000000000000284e-01
2.820000000000000284e-01
2.820000000000000284e-01
2.820000000000000284e-01
2.800000000000000266e-01
2.800000000000000266e-01
2.800000000000000266e-01
2.780000000000000249e-01
2.800000000000000266e-01
2.800000000000000266e-01
2.820000000000000284e-01
2.820000000000000284e-01
2.800000000000000266e-01
2.780000000000000249e-01
2.780000000000000249e-01
2.800000000000000266e-01
2.780000000000000249e-01
2.760000000000000231e-01
2.760000000000000231e-01
2.760000000000000231e-01
2.780000000000000249e-01
2.780000000000000249e-01
2.780000000000000249e-01
2.780000000000000249e-01
2.780000000000000249e-01
2.780000000000000249e-01
2.780000000000000249e-01
2.780000000000000249e-01
2.780000000000000249e-01
2.780000000000000249e-01
2.780000000000000249e-01
2.760000000000000231e-01
2.760000000000000231e-01
2.760000000000000231e-01
2.760000000000000231e-01
2.760000000000000231e-01
2.760000000000000231e-01
2.760000000000000231e-01
2.760000000000000231e-01
2.760000000000000231e-01
2.760000000000000231e-01
2.760000000000000231e-01
2.760000000000000231e-01
2.740000000000000213e-01
2.740000000000000213e-01
2.740000000000000213e-01
2.740000000000000213e-01
2.760000000000000231e-01
2.760000000000000231e-01
2.760000000000000231e-01
2.760000000000000231e-01
2.760000000000000231e-01
2.740000000000000213e-01
2.740000000000000213e-01
2.740000000000000213e-01
2.760000000000000231e-01
2.760000000000000231e-01
2.760000000000000231e-01
2.760000000000000231e-01
2.760000000000000231e-01
2.760000000000000231e-01
2.760000000000000231e-01
2.760000000000000231e-01
2.760000000000000231e-01
2.760000000000000231e-01
2.760000000000000231e-01
2.780000000000000249e-01
2.780000000000000249e-01
2.780000000000000249e-01
2.780000000000000249e-01
2.780000000000000249e-01
2.780000000000000249e-01
2.800000000000000266e-01
2.820000000000000284e-01
2.820000000000000284e-01
2.840000000000000302e-01
2.860000000000000320e-01
2.860000000000000320e-01
2.899999999999999800e-01
2.919999999999999818e-01
2.939999999999999836e-01
2.959999999999999853e-01
2.979999999999999871e-01
2.999999999999999889e-01
3.039999999999999925e-01
3.059999999999999942e-01
3.099999999999999978e-01
3.140000000000000013e-01
3.200000000000000067e-01
3.200000000000000067e-01
3.200000000000000067e-01
3.200000000000000067e-01
3.099999999999999978e-01
2.939999999999999836e-01
2.640000000000000124e-01
2.419999999999999929e-01
2.399999999999999911e-01
2.399999999999999911e-01
2.380000000000000171e-01
2.340000000000000135e-01
2.300000000000000100e-01
2.340000000000000135e-01
2.360000000000000153e-01
2.360000000000000153e-01
2.380000000000000171e-01
2.380000000000000171e-01
2.360000000000000153e-01
2.340000000000000135e-01
2.300000000000000100e-01
2.220000000000000029e-01
2.240000000000000047e-01
2.280000000000000082e-01
2.300000000000000100e-01
2.300000000000000100e-01
2.320000000000000118e-01
2.320000000000000118e-01
2.320000000000000118e-01
2.340000000000000135e-01
2.340000000000000135e-01
2.360000000000000153e-01
2.360000000000000153e-01
2.380000000000000171e-01
2.380000000000000171e-01
2.380000000000000171e-01
2.380000000000000171e-01
2.380000000000000171e-01
2.399999999999999911e-01
2.399999999999999911e-01
2.399999999999999911e-01
2.399999999999999911e-01
2.399999999999999911e-01
2.399999999999999911e-01
2.399999999999999911e-01
2.399999999999999911e-01
2.399999999999999911e-01
2.399999999999999911e-01
2.399999999999999911e-01
2.399999999999999911e-01
2.399999999999999911e-01
2.399999999999999911e-01
2.399999999999999911e-01
2.399999999999999911e-01
2.399999999999999911e-01
2.399999999999999911e-01
2.399999999999999911e-01
2.399999999999999911e-01
2.380000000000000171e-01
2.380000000000000171e-01
2.380000000000000171e-01
2.399999999999999911e-01
2.399999999999999911e-01
2.380000000000000171e-01
2.380000000000000171e-01
2.380000000000000171e-01
2.380000000000000171e-01
2.380000000000000171e-01
2.360000000000000153e-01
2.360000000000000153e-01
2.360000000000000153e-01
2.360000000000000153e-01
2.360000000000000153e-01
2.360000000000000153e-01
2.340000000000000135e-01
2.340000000000000135e-01
2.340000000000000135e-01
2.340000000000000135e-01
2.340000000000000135e-01
2.340000000000000135e-01
2.340000000000000135e-01
2.340000000000000135e-01
2.340000000000000135e-01
2.340000000000000135e-01
2.340000000000000135e-01
2.340000000000000135e-01
2.320000000000000118e-01
2.320000000000000118e-01
2.320000000000000118e-01
2.300000000000000100e-01
2.300000000000000100e-01
2.300000000000000100e-01
2.300000000000000100e-01
2.300000000000000100e-01
2.300000000000000100e-01
2.300000000000000100e-01
2.300000000000000100e-01
2.300000000000000100e-01
2.300000000000000100e-01
2.300000000000000100e-01
2.300000000000000100e-01
2.280000000000000082e-01
2.280000000000000082e-01
2.320000000000000118e-01
2.500000000000000000e-01
2.720000000000000195e-01
2.820000000000000284e-01
2.840000000000000302e-01
2.840000000000000302e-01
2.800000000000000266e-01
2.740000000000000213e-01
2.680000000000000160e-01
2.680000000000000160e-01
2.680000000000000160e-01
2.640000000000000124e-01
2.560000000000000053e-01
2.479999999999999982e-01
2.399999999999999911e-01
2.320000000000000118e-01
2.280000000000000082e-01
2.240000000000000047e-01
2.220000000000000029e-01
2.220000000000000029e-01
2.220000000000000029e-01
2.240000000000000047e-01
2.240000000000000047e-01
2.220000000000000029e-01
2.220000000000000029e-01
2.220000000000000029e-01
2.220000000000000029e-01
2.220000000000000029e-01
2.220000000000000029e-01
2.220000000000000029e-01
2.220000000000000029e-01
2.220000000000000029e-01
2.220000000000000029e-01
2.240000000000000047e-01
2.240000000000000047e-01
2.240000000000000047e-01
2.240000000000000047e-01
2.260000000000000064e-01
2.260000000000000064e-01
2.260000000000000064e-01
2.280000000000000082e-01
2.300000000000000100e-01
2.320000000000000118e-01
2.340000000000000135e-01
2.399999999999999911e-01
2.459999999999999964e-01
2.520000000000000018e-01
2.560000000000000053e-01
2.580000000000000071e-01
2.840000000000000302e-01
2.600000000000000089e-01
2.600000000000000089e-01
2.600000000000000089e-01
2.580000000000000071e-01
2.560000000000000053e-01
2.540000000000000036e-01
2.500000000000000000e-01
2.459999999999999964e-01
2.399999999999999911e-01
2.360000000000000153e-01
2.320000000000000118e-01
2.300000000000000100e-01
2.280000000000000082e-01
2.280000000000000082e-01
2.280000000000000082e-01
2.280000000000000082e-01
2.260000000000000064e-01
2.240000000000000047e-01
2.240000000000000047e-01
2.240000000000000047e-01
2.240000000000000047e-01
2.240000000000000047e-01
2.240000000000000047e-01
2.240000000000000047e-01
2.260000000000000064e-01
2.260000000000000064e-01
2.260000000000000064e-01
2.260000000000000064e-01
2.280000000000000082e-01
2.280000000000000082e-01
2.300000000000000100e-01
2.300000000000000100e-01
2.300000000000000100e-01
2.320000000000000118e-01
2.320000000000000118e-01
2.340000000000000135e-01
2.360000000000000153e-01
2.380000000000000171e-01
2.419999999999999929e-01
2.439999999999999947e-01
2.459999999999999964e-01
2.479999999999999982e-01
2.520000000000000018e-01
2.540000000000000036e-01
2.580000000000000071e-01
2.640000000000000124e-01
2.700000000000000178e-01
2.780000000000000249e-01
2.880000000000000338e-01
2.999999999999999889e-01
3.099999999999999978e-01
3.200000000000000067e-01
3.300000000000000155e-01
3.420000000000000262e-01
3.539999999999999813e-01
3.699999999999999956e-01
3.880000000000000115e-01
4.420000000000000040e-01
4.620000000000000218e-01
4.620000000000000218e-01
4.620000000000000218e-01
4.400000000000000022e-01
3.400000000000000244e-01
1.900000000000000022e-01
1.120000000000000023e-01
1.380000000000000115e-01
1.640000000000000069e-01
1.740000000000000158e-01
1.880000000000000004e-01
1.960000000000000075e-01
2.060000000000000164e-01
2.119999999999999940e-01
2.159999999999999976e-01
2.200000000000000011e-01
2.240000000000000047e-01
2.280000000000000082e-01
2.320000000000000118e-01
2.320000000000000118e-01
2.320000000000000118e-01
2.320000000000000118e-01
2.320000000000000118e-01
2.320000000000000118e-01
2.340000000000000135e-01
2.340000000000000135e-01
2.360000000000000153e-01
2.360000000000000153e-01
2.380000000000000171e-01
2.399999999999999911e-01
2.419999999999999929e-01
2.439999999999999947e-01
2.479999999999999982e-01
2.500000000000000000e-01
2.540000000000000036e-01
2.560000000000000053e-01
2.580000000000000071e-01
2.620000000000000107e-01
2.680000000000000160e-01
2.720000000000000195e-01
2.780000000000000249e-01
2.840000000000000302e-01
2.939999999999999836e-01
2.999999999999999889e-01
3.019999999999999907e-01
3.019999999999999907e-01
2.999999999999999889e-01
2.919999999999999818e-01
2.740000000000000213e-01
2.459999999999999964e-01
2.300000000000000100e-01
2.300000000000000100e-01
2.300000000000000100e-01
2.260000000000000064e-01
2.300000000000000100e-01
2.439999999999999947e-01
2.540000000000000036e-01
2.620000000000000107e-01
2.680000000000000160e-01
2.700000000000000178e-01
2.700000000000000178e-01
2.660000000000000142e-01
2.580000000000000071e-01
2.500000000000000000e-01
2.399999999999999911e-01
2.360000000000000153e-01
2.300000000000000100e-01
2.360000000000000153e-01
2.479999999999999982e-01
2.500000000000000000e-01
2.540000000000000036e-01
2.560000000000000053e-01
2.620000000000000107e-01
2.680000000000000160e-01
2.760000000000000231e-01
2.820000000000000284e-01
2.899999999999999800e-01
2.959999999999999853e-01
2.999999999999999889e-01
3.039999999999999925e-01
3.039999999999999925e-01
3.019999999999999907e-01
2.919999999999999818e-01
2.740000000000000213e-01
2.580000000000000071e-01
2.500000000000000000e-01
2.459999999999999964e-01
2.340000000000000135e-01
2.080000000000000182e-01
1.940000000000000058e-01
2.240000000000000047e-01
2.560000000000000053e-01
2.720000000000000195e-01
2.760000000000000231e-01
2.760000000000000231e-01
2.760000000000000231e-01
2.660000000000000142e-01
2.320000000000000118e-01
1.819999999999999951e-01
1.380000000000000115e-01
1.140000000000000041e-01
1.000000000000000056e-01
8.799999999999999489e-02
5.800000000000000294e-02
2.600000000000000228e-02
2.400000000000000050e-02
4.200000000000000261e-02
5.399999999999999939e-02
6.400000000000000133e-02
7.200000000000000844e-02
8.200000000000000344e-02
8.999999999999999667e-02
9.600000000000000200e-02
1.020000000000000073e-01
1.059999999999999970e-01
1.079999999999999988e-01
1.079999999999999988e-01
1.059999999999999970e-01
1.020000000000000073e-01
1.000000000000000056e-01
1.120000000000000023e-01
1.199999999999999956e-01
1.260000000000000009e-01
1.320000000000000062e-01
1.380000000000000115e-01
1.459999999999999909e-01
1.479999999999999927e-01
1.479999999999999927e-01
1.440000000000000169e-01
1.180000000000000077e-01
7.799999999999999989e-02
7.799999999999999989e-02
9.199999999999999845e-02
9.600000000000000200e-02
9.600000000000000200e-02
9.600000000000000200e-02
9.400000000000000022e-02
9.400000000000000022e-02
9.199999999999999845e-02
8.600000000000000699e-02
7.799999999999999989e-02
7.399999999999999634e-02
7.599999999999999811e-02
7.599999999999999811e-02
7.799999999999999989e-02
8.200000000000000344e-02
8.600000000000000699e-02
8.799999999999999489e-02
8.799999999999999489e-02
8.600000000000000699e-02
8.000000000000000167e-02
8.200000000000000344e-02
8.400000000000000522e-02
8.400000000000000522e-02
8.400000000000000522e-02
8.400000000000000522e-02
8.400000000000000522e-02
8.400000000000000522e-02
8.200000000000000344e-02
8.200000000000000344e-02
8.200000000000000344e-02
8.200000000000000344e-02
8.200000000000000344e-02
8.400000000000000522e-02
8.600000000000000699e-02
8.999999999999999667e-02
9.199999999999999845e-02
9.400000000000000022e-02
9.600000000000000200e-02
9.600000000000000200e-02
9.400000000000000022e-02
8.999999999999999667e-02
8.000000000000000167e-02
8.200000000000000344e-02
8.600000000000000699e-02
8.999999999999999667e-02
9.400000000000000022e-02
9.600000000000000200e-02
9.800000000000000377e-02
1.020000000000000073e-01
1.040000000000000091e-01
1.059999999999999970e-01
1.059999999999999970e-01
1.059999999999999970e-01
1.079999999999999988e-01
1.120000000000000023e-01
1.120000000000000023e-01
1.120000000000000023e-01
1.120000000000000023e-01
1.079999999999999988e-01
1.059999999999999970e-01
1.040000000000000091e-01
1.020000000000000073e-01
1.000000000000000056e-01
9.600000000000000200e-02
9.199999999999999845e-02
8.999999999999999667e-02
8.400000000000000522e-02
8.200000000000000344e-02
8.200000000000000344e-02
8.400000000000000522e-02
8.400000000000000522e-02
8.200000000000000344e-02
8.200000000000000344e-02
8.200000000000000344e-02
8.200000000000000344e-02
